 Rgeom_[µm]  Q(0.3800nm)  Q(0.4400nm)  Q(0.6750nm)  Q(0.8700nm)  Q(1.0200nm)  

  0.0821     0.9708E-10   0.6290E-10   0.1355E-10   0.5009E-11   0.2662E-11
  0.0863     0.1236E-09   0.8143E-10   0.1823E-10   0.6779E-11   0.3607E-11
  0.0908     0.1573E-09   0.1047E-09   0.2448E-10   0.9169E-11   0.4886E-11
  0.0956     0.2010E-09   0.1338E-09   0.3278E-10   0.1239E-10   0.6617E-11
  0.1005     0.2587E-09   0.1704E-09   0.4375E-10   0.1672E-10   0.8954E-11
  0.1058     0.3361E-09   0.2169E-09   0.5817E-10   0.2254E-10   0.1211E-10
  0.1113     0.4384E-09   0.2772E-09   0.7697E-10   0.3033E-10   0.1637E-10
  0.1171     0.5670E-09   0.3573E-09   0.1013E-09   0.4072E-10   0.2210E-10
  0.1232     0.7166E-09   0.4646E-09   0.1324E-09   0.5453E-10   0.2979E-10
  0.1296     0.8790E-09   0.6058E-09   0.1720E-09   0.7279E-10   0.4010E-10
  0.1364     0.1053E-08   0.7819E-09   0.2217E-09   0.9676E-10   0.5386E-10
  0.1435     0.1252E-08   0.9849E-09   0.2841E-09   0.1280E-09   0.7216E-10
  0.1510     0.1508E-08   0.1204E-08   0.3622E-09   0.1684E-09   0.9635E-10
  0.1588     0.1860E-08   0.1440E-08   0.4608E-09   0.2203E-09   0.1282E-09
  0.1671     0.2318E-08   0.1713E-08   0.5876E-09   0.2860E-09   0.1697E-09
  0.1758     0.2818E-08   0.2068E-08   0.7544E-09   0.3688E-09   0.2235E-09
  0.1850     0.3290E-08   0.2558E-08   0.9775E-09   0.4725E-09   0.2924E-09
  0.1946     0.3779E-08   0.3184E-08   0.1275E-08   0.6023E-09   0.3801E-09
  0.2048     0.4433E-08   0.3853E-08   0.1656E-08   0.7664E-09   0.4905E-09
  0.2155     0.5356E-08   0.4483E-08   0.2110E-08   0.9773E-09   0.6289E-09
  0.2267     0.6275E-08   0.5151E-08   0.2612E-08   0.1255E-08   0.8022E-09
  0.2385     0.6980E-08   0.6068E-08   0.3147E-08   0.1626E-08   0.1021E-08
  0.2499     0.7731E-08   0.7231E-08   0.3694E-08   0.2078E-08   0.1277E-08
  0.2609     0.8818E-08   0.8287E-08   0.4293E-08   0.2596E-08   0.1574E-08
  0.2724     0.9913E-08   0.9114E-08   0.5062E-08   0.3207E-08   0.1953E-08
  0.2844     0.1046E-07   0.9934E-08   0.6071E-08   0.3887E-08   0.2439E-08
  0.2968     0.1100E-07   0.1116E-07   0.7313E-08   0.4611E-08   0.3055E-08
  0.3099     0.1226E-07   0.1277E-07   0.8650E-08   0.5376E-08   0.3807E-08
  0.3235     0.1316E-07   0.1378E-07   0.9931E-08   0.6223E-08   0.4680E-08
  0.3377     0.1300E-07   0.1438E-07   0.1118E-07   0.7240E-08   0.5636E-08
  0.3525     0.1358E-07   0.1562E-07   0.1262E-07   0.8552E-08   0.6646E-08
  0.3680     0.1477E-07   0.1742E-07   0.1459E-07   0.1027E-07   0.7723E-08
  0.3842     0.1375E-07   0.1754E-07   0.1714E-07   0.1236E-07   0.8942E-08
  0.4011     0.1384E-07   0.1760E-07   0.1960E-07   0.1458E-07   0.1044E-07
  0.4187     0.1470E-07   0.1954E-07   0.2153E-07   0.1670E-07   0.1240E-07
  0.4358     0.1294E-07   0.1920E-07   0.2333E-07   0.1864E-07   0.1475E-07
  0.4524     0.1385E-07   0.1800E-07   0.2572E-07   0.2069E-07   0.1729E-07
  0.4695     0.1412E-07   0.1936E-07   0.2900E-07   0.2336E-07   0.1994E-07
  0.4874     0.1264E-07   0.1943E-07   0.3168E-07   0.2684E-07   0.2248E-07
  0.5059     0.1569E-07   0.1725E-07   0.3304E-07   0.3061E-07   0.2493E-07
  0.5251     0.1533E-07   0.1885E-07   0.3446E-07   0.3381E-07   0.2762E-07
  0.5450     0.1686E-07   0.1879E-07   0.3758E-07   0.3645E-07   0.3101E-07
  0.5657     0.2003E-07   0.1692E-07   0.4109E-07   0.3938E-07   0.3551E-07
  0.5872     0.2144E-07   0.2109E-07   0.4135E-07   0.4368E-07   0.4072E-07
  0.6094     0.2691E-07   0.2047E-07   0.4110E-07   0.4920E-07   0.4539E-07
  0.6326     0.2975E-07   0.2336E-07   0.4412E-07   0.5317E-07   0.4915E-07
  0.6566     0.3598E-07   0.2708E-07   0.4648E-07   0.5525E-07   0.5293E-07
  0.6815     0.3956E-07   0.2927E-07   0.4348E-07   0.5794E-07   0.5821E-07
  0.7074     0.4627E-07   0.3654E-07   0.4283E-07   0.6374E-07   0.6561E-07
  0.7342     0.5051E-07   0.4039E-07   0.4738E-07   0.6873E-07   0.7197E-07
  0.7586     0.5351E-07   0.4772E-07   0.4361E-07   0.6862E-07   0.7493E-07
  0.7801     0.5332E-07   0.5169E-07   0.4018E-07   0.6813E-07   0.7696E-07
  0.8022     0.5435E-07   0.6071E-07   0.4320E-07   0.7014E-07   0.8025E-07
  0.8249     0.5246E-07   0.6381E-07   0.4594E-07   0.7577E-07   0.8622E-07
  0.8483     0.5300E-07   0.6571E-07   0.4221E-07   0.7703E-07   0.9274E-07
  0.8723     0.5302E-07   0.6889E-07   0.4002E-07   0.7324E-07   0.9486E-07
  0.8970     0.5403E-07   0.6817E-07   0.4924E-07   0.7025E-07   0.9398E-07
  0.9225     0.5682E-07   0.6885E-07   0.4880E-07   0.7379E-07   0.9394E-07
  0.9486     0.5433E-07   0.6882E-07   0.4732E-07   0.7858E-07   0.9849E-07
  0.9755     0.5729E-07   0.6691E-07   0.5881E-07   0.7301E-07   0.1059E-06
  1.0031     0.6447E-07   0.6754E-07   0.6283E-07   0.6701E-07   0.1046E-06
  1.0315     0.7153E-07   0.6574E-07   0.6518E-07   0.7071E-07   0.9899E-07
  1.0608     0.8550E-07   0.6915E-07   0.8239E-07   0.7673E-07   0.9670E-07
  1.0908     0.9069E-07   0.7460E-07   0.8865E-07   0.7067E-07   0.1049E-06
  1.1217     0.9930E-07   0.8268E-07   0.9321E-07   0.6625E-07   0.1064E-06
  1.1535     0.1114E-06   0.8314E-07   0.1116E-06   0.8094E-07   0.9746E-07
  1.1862     0.1116E-06   0.9293E-07   0.1223E-06   0.8111E-07   0.9129E-07
  1.2198     0.1177E-06   0.1094E-06   0.1336E-06   0.7867E-07   0.1026E-06
  1.2544     0.1148E-06   0.1253E-06   0.1440E-06   0.9500E-07   0.1031E-06
  1.2899     0.1165E-06   0.1331E-06   0.1469E-06   0.1035E-06   0.9432E-07
  1.3217     0.1077E-06   0.1422E-06   0.1559E-06   0.1080E-06   0.9213E-07
  1.3493     0.1143E-06   0.1467E-06   0.1685E-06   0.1158E-06   0.1096E-06
  1.3776     0.1199E-06   0.1533E-06   0.1609E-06   0.1387E-06   0.1120E-06
  1.4064     0.1213E-06   0.1516E-06   0.1613E-06   0.1475E-06   0.1108E-06
  1.4358     0.1387E-06   0.1582E-06   0.1714E-06   0.1526E-06   0.1081E-06
  1.4658     0.1455E-06   0.1518E-06   0.1659E-06   0.1742E-06   0.1248E-06
  1.4965     0.1610E-06   0.1557E-06   0.1575E-06   0.1848E-06   0.1399E-06
  1.5278     0.1781E-06   0.1441E-06   0.1600E-06   0.2031E-06   0.1470E-06
  1.5597     0.1855E-06   0.1540E-06   0.1681E-06   0.2069E-06   0.1489E-06
  1.5923     0.1925E-06   0.1572E-06   0.1687E-06   0.2314E-06   0.1728E-06
  1.6257     0.1994E-06   0.1631E-06   0.1620E-06   0.2480E-06   0.1899E-06
  1.6596     0.2094E-06   0.1858E-06   0.1588E-06   0.2435E-06   0.2075E-06
  1.6944     0.1935E-06   0.1920E-06   0.1699E-06   0.2694E-06   0.2126E-06
  1.7298     0.1937E-06   0.2167E-06   0.1811E-06   0.2763E-06   0.2577E-06
  1.7660     0.1945E-06   0.2402E-06   0.1976E-06   0.2656E-06   0.2628E-06
  1.8029     0.2077E-06   0.2457E-06   0.2256E-06   0.2791E-06   0.2780E-06
  1.8406     0.2213E-06   0.2602E-06   0.2450E-06   0.2905E-06   0.2999E-06
  1.8791     0.2339E-06   0.2664E-06   0.2805E-06   0.2694E-06   0.3144E-06
  1.9184     0.2533E-06   0.2720E-06   0.2815E-06   0.2628E-06   0.3418E-06
  1.9585     0.2846E-06   0.2582E-06   0.3216E-06   0.2760E-06   0.3413E-06
  1.9995     0.2955E-06   0.2667E-06   0.3242E-06   0.2848E-06   0.3553E-06
  2.0413     0.3067E-06   0.2603E-06   0.3599E-06   0.2581E-06   0.3830E-06
  2.0840     0.3109E-06   0.2908E-06   0.3732E-06   0.2641E-06   0.3688E-06
  2.1276     0.3106E-06   0.2909E-06   0.3713E-06   0.2661E-06   0.3672E-06
  2.1721     0.3116E-06   0.3080E-06   0.3504E-06   0.2843E-06   0.3876E-06
  2.2175     0.3203E-06   0.3430E-06   0.3698E-06   0.3252E-06   0.3856E-06
  2.2639     0.3402E-06   0.3749E-06   0.3436E-06   0.3383E-06   0.3602E-06
  2.3039     0.3631E-06   0.4012E-06   0.3616E-06   0.3466E-06   0.3687E-06
  2.3371     0.3690E-06   0.4005E-06   0.3395E-06   0.3620E-06   0.3686E-06
  2.3709     0.4052E-06   0.4087E-06   0.3685E-06   0.4028E-06   0.3541E-06
  2.4051     0.4281E-06   0.4265E-06   0.3585E-06   0.4164E-06   0.3823E-06
  2.4398     0.4333E-06   0.3976E-06   0.3674E-06   0.4413E-06   0.3623E-06
  2.4750     0.4269E-06   0.4033E-06   0.3899E-06   0.4798E-06   0.4099E-06
  2.5107     0.4401E-06   0.4207E-06   0.3872E-06   0.4970E-06   0.3639E-06
  2.5470     0.4351E-06   0.3968E-06   0.4374E-06   0.5207E-06   0.3899E-06
  2.5837     0.4466E-06   0.4204E-06   0.4391E-06   0.5643E-06   0.4123E-06
  2.6210     0.4315E-06   0.4562E-06   0.5032E-06   0.5709E-06   0.4124E-06
  2.6589     0.4355E-06   0.4607E-06   0.5076E-06   0.5775E-06   0.4670E-06
  2.6972     0.4769E-06   0.4917E-06   0.5560E-06   0.5711E-06   0.4709E-06
  2.7362     0.5012E-06   0.5392E-06   0.5742E-06   0.6202E-06   0.4973E-06
  2.7757     0.5444E-06   0.5719E-06   0.5969E-06   0.5949E-06   0.5398E-06
  2.8157     0.5838E-06   0.5648E-06   0.6208E-06   0.5836E-06   0.5651E-06
  2.8564     0.5892E-06   0.5816E-06   0.6237E-06   0.6156E-06   0.6063E-06
  2.8976     0.5830E-06   0.5903E-06   0.6390E-06   0.5988E-06   0.6353E-06
  2.9394     0.5739E-06   0.6043E-06   0.6316E-06   0.5990E-06   0.6744E-06
  2.9818     0.5673E-06   0.5856E-06   0.6377E-06   0.5895E-06   0.7163E-06
  3.0249     0.5721E-06   0.5646E-06   0.6307E-06   0.5640E-06   0.7658E-06
  3.0685     0.5890E-06   0.6020E-06   0.6241E-06   0.6111E-06   0.7741E-06
  3.1128     0.6244E-06   0.6436E-06   0.6490E-06   0.5820E-06   0.7963E-06
  3.1577     0.6619E-06   0.6845E-06   0.6145E-06   0.6393E-06   0.7860E-06
  3.2033     0.7162E-06   0.7221E-06   0.6538E-06   0.6454E-06   0.8472E-06
  3.2495     0.7463E-06   0.7426E-06   0.6540E-06   0.6649E-06   0.8221E-06
  3.2964     0.7667E-06   0.7596E-06   0.7024E-06   0.7328E-06   0.7987E-06
  3.3440     0.7653E-06   0.7716E-06   0.7555E-06   0.7413E-06   0.8501E-06
  3.3923     0.7515E-06   0.7908E-06   0.8115E-06   0.8298E-06   0.8547E-06
  3.4412     0.7413E-06   0.7797E-06   0.8969E-06   0.8461E-06   0.8156E-06
  3.4909     0.7531E-06   0.7849E-06   0.8749E-06   0.9402E-06   0.8159E-06
  3.5413     0.7928E-06   0.8047E-06   0.9382E-06   0.9427E-06   0.7740E-06
  3.5924     0.8555E-06   0.8429E-06   0.9627E-06   0.1034E-05   0.8431E-06
  3.6443     0.9300E-06   0.8962E-06   0.9754E-06   0.1010E-05   0.8032E-06
  3.6968     0.9836E-06   0.9551E-06   0.9889E-06   0.1090E-05   0.8606E-06
  3.7502     0.9809E-06   0.1009E-05   0.9454E-06   0.1040E-05   0.8903E-06
  3.8043     0.9557E-06   0.1037E-05   0.9466E-06   0.1089E-05   0.9010E-06
  3.8592     0.9319E-06   0.1041E-05   0.9820E-06   0.1017E-05   0.1003E-05
  3.9149     0.9587E-06   0.1030E-05   0.9471E-06   0.1057E-05   0.1011E-05
  3.9714     0.1066E-05   0.1023E-05   0.1015E-05   0.9966E-06   0.1142E-05
